 -0.80055956540374651     
  0.48982564298198661     
  -5.0903962925859858E-002
   1.5223543432373756     
 -0.52445275487219123     
  0.48909999978762647     
  -1.0998805862343222     
  -1.1399070682062842     
 -0.19662083173898756     
   1.0381915793311154     
 -0.48215532096632374     
 -0.12988161964458836     
 -0.34239079074877071     
 -0.56514838667276379     
  0.84023060924002857     
  -1.0338048372461410     
 -0.36691719571053660     
  0.11148706836346800     
 -0.81332552681561465     
   1.6045158021218600     
  0.57896255409541786     
 -0.46100364951373057     
  0.36113699535004201     
  0.17659659721264670     
   1.0225792656967188     
 -0.76498007132459789     
  0.51195319300098807     
 -0.90307757845488013     
 -0.14547330600104369     
   1.0741970291362772     
  0.92314138754761743     
 -0.76362833090085724     
 -0.13048638389987005     
 -0.20049461793186846     
  0.90112077653642264     
 -0.21316476076548690     
  0.47986002954847157     
 -0.30939093103957804     
   1.2266287693707205     
 -0.24892395891932689     
  0.83175257340417419     
  0.22287180988708943     
 -0.22518260875926882     
  -1.0839835996072651     
 -0.31673744747124649     
   1.9659307569771272     
  0.32730441850197362     
  0.19885115714951471     
 -0.56044599657118466     
 -0.61443817805932277     
  0.87521887951404820     
 -0.70595197621448746     
 -0.48177759581621521     
  0.55101703778407474     
  0.67108274762349984     
   1.4084821729751771     
 -0.11809453005075458     
 -0.84824681090551091     
 -0.99970285238088208     
 -0.90224849622232250     
  0.55498043551747767     
  -1.2118556413770869     
  0.61769210277047848     
  0.14443775658864952     
   1.2567027675023785     
 -0.79641917014454733     
  -1.6892770918528992     
 -0.46289866329799195     
 -0.71311785114284054     
   1.1250022609616157     
 -0.28651240466247846     
 -0.18180820526124772     
  -1.4311989874662761     
 -0.86612970478003271     
 -0.54321208718018499     
  0.24542613695180004     
   1.6421226106405471     
   1.0611095578084930E-002
  0.95732528429919816     
  0.29185258735612118     
  0.68571913368391968     
  -5.9136567657676352E-002
  -1.0791701133052711     
  0.43636145072132904     
 -0.36676109188212180     
 -0.15572471251308106     
 -0.58328221432398475     
   6.6491505427972303E-002
 -0.15677518407704602     
 -0.10536377557606977     
 -0.70428745949865235     
  0.33756147099616773     
 -0.81430786122107701     
   1.2597674644884334     
  0.66865528137240815     
  0.49270659654213000     
   1.0426307999242614     
  -2.5665980409068045     
  0.92258514419280080     
  0.46901281680156942     
   1.0008487194354931     
 -0.28212231940607291     
 -0.53286175185590434     
  0.47714937250322642     
 -0.71624153985450434     
 -0.55748868166619159     
 -0.90816041131366609     
  0.38431361223535482     
  0.90264160748086264     
 -0.29157151921632335     
 -0.38624951312359451     
  0.11228070048187408     
  0.67465748090485200     
  0.53032818575959306     
  0.63761001964319863     
   1.8919469138677809     
  0.13856346157205016     
   1.9063416259471166     
   1.0902226971185549     
  -1.3210853485800556     
 -0.58489527099993766     
  0.40103271399650309     
 -0.10461707077423547     
 -0.26031278369167665     
   2.0503590654549617     
  0.84571599314277612     
  0.41195984962863769     
  0.79439130154668347     
  0.17364999862745076     
  0.23349441129383169     
  -1.0771452794252494     
  0.18791687378868019     
  -1.1464468486491017     
  0.67418020719807503     
 -0.23740798178732742     
   2.0399070847177203     
  0.14209584611965040     
 -0.33823792542474407     
 -0.24212699567214457     
 -0.41375650055954372     
 -0.57641622956108041     
  0.86105726600566490     
  0.36665881617675766     
  0.20160173244081930     
  0.64067689529250382     
 -0.11154205018397660     
   1.5390685630165923     
   9.1615548299910712E-002
   1.1514729442927196     
 -0.16212106336448903     
  -2.1725027375904431     
  -1.3573714310242375     
   3.9190517021494599E-002
  0.40579885585828668     
 -0.51317408254418306     
 -0.24515970769026899     
  -1.3963300046507956     
 -0.14449826875452479     
  -9.5874817229655365E-002
   1.3734550345632819     
 -0.90705291926383291     
 -0.32631479308906419     
  0.22941621165574214     
  0.67893165754988738     
   1.2971686253128387     
 -0.26222304138326591     
 -0.63694103834142057     
  -1.0338624896845261     
 -0.21751936727176394     
   1.2448743579791204     
  -1.5114592504996600     
  -1.4454740618447284     
 -0.53936119856057563     
 -0.92279623931660548     
  0.50655035372513024     
  0.61389448097147759     
 -0.63912075809886271     
   1.0610985197072420     
 -0.95753120988701235     
  0.19900316801440271     
  0.12275881497251923     
 -0.84538630537011294     
  0.56968269576600694     
   1.2453540470744493     
  0.60273514096617054     
  0.10988994950216331     
  0.57767694103431377     
  -7.0698993247682550E-003
  -1.1332143467237223     
  0.89316632767122583     
   1.2207527930410182     
  0.93856689406523064     
   3.7838906216536308E-002
  0.43508914189669495     
  0.31636065726463375     
 -0.88426855274797378     
  -1.9641114654059195     
  -2.2745572995855743     
 -0.85034774413240932     
   1.9186448530908993     
  -1.2806139466923194     
 -0.93942313448850123     
   1.5965332906480116     
 -0.25253313056132426     
 -0.87246702640937812     
  0.89941890942197755     
  -1.4940429322746116     
 -0.57892741809429127     
 -0.63229704361995553     
   1.7438046253736874     
  -1.1012442595193481     
  -1.2382913037526349     
  0.40263026079777392     
  0.20140057972630343     
  0.33069958847663034     
   1.0359785770881111     
 -0.61713830913456391     
  0.53717676252474555     
  0.84522875820409149     
   1.5823173968126671     
  -7.8314480157345531E-002
 -0.33061475461747886     
  -3.2225439460130879E-002
 -0.42508104156859050     
  -1.6673197055005371     
 -0.49647900588474464     
  0.14823465868245600     
  -9.5878158110124748E-002
  0.21818071099607603     
  -1.7602149153650173     
  0.11879054399133393     
  0.64752419205230460     
  -4.6375482310072463E-002
  0.18248204685754055     
  0.29686838467776600     
   2.2669127326535401     
 -0.38032918546612543     
  -1.7996754129886328     
  -2.0265550046259233     
   1.2833431660231964     
  0.33141225686403403     
 -0.10549104010233648     
  0.78640738190588955     
   1.9808365549112286     
  0.36307503569056382     
  -7.4992420689132134E-003
  0.20552140008620665     
  0.39581571588866210     
 -0.35599623060493202     
 -0.21370821589166666     
  -1.5661077788779847     
 -0.79040985165902489     
  0.96268661454439508     
 -0.79134546483975055     
  -1.6363964810896168     
  -1.7085201327569000     
   1.7477242364291126     
  0.51107627766212749     
  -1.0068702666384246     
  0.49908322244319359     
  -1.5395254731987373     
   1.7897702903130881     
  -1.3351505631064695     
 -0.44903915295102576     
 -0.16630202347419984     
   9.9021600109762437E-002
 -0.69759516482377004     
 -0.46661919157345072     
 -0.52538174620266742     
  -2.0711763674659848E-003
 -0.63095488332592853     
   1.0800806025334770     
  -1.4266482810749497     
  0.20140838291126592     
 -0.36191364590464031     
  0.71598370688946700     
 -0.23414738608172322     
   2.5625508444261369     
  0.19386520223921833     
 -0.78773754371045523     
   1.1083978673530677     
  -1.1548891093449192     
  0.45750422397295248     
  -1.3463834242482351     
 -0.11777324422768971     
  0.68592732768170417     
 -0.55933130939334796     
  -1.3332519087719279     
   1.5453857339403856     
 -0.77686792277511441     
  0.93399948766961172     
 -0.35529521725374680     
  0.23363170702230293     
  0.64978249750380879     
   8.4207483976342729E-002
  -1.7075008658629161     
  -1.0690936784169482     
 -0.22389083685875283     
 -0.39935320322538953     
   1.7465345451964627     
 -0.23393160353035741     
  -1.2791492821776063     
  -1.2140825218623654     
 -0.92754412761542837     
  0.57724593753154696     
  -2.8185340142606026     
   1.2457958618036746     
  0.55156699025228828     
  0.72085473301153735     
 -0.54999397160553964     
  -1.7338700190703022     
 -0.22222981503678144     
  0.52520772883475986     
  -1.0335321022355088     
 -0.17318897555239840     
 -0.41803167124631135     
  -1.5110689073804222     
  0.20771639059811892     
 -0.34348897237471543     
   1.5224907113479527     
 -0.34126790628094006     
   1.0963605687021485     
  -1.4750062639746855     
  0.45850319526627109     
 -0.10398854935878245     
  0.13287044734081052     
   1.0705223590254507     
 -0.91953395926649184     
  0.46143921053153270     
  -1.0151139774660038     
 -0.62830404722179067     
 -0.60809387298245332     
  0.78913801806217365     
  -2.3295652850831856     
  0.95172860386838820     
  0.55753279207426409     
  0.82965524009328906     
  0.92093845767126492     
 -0.69062898161331032     
 -0.38081593781798129     
  0.20954112640687325     
   1.8039151732019625     
   1.5735930240372746     
 -0.62804354288370046     
   1.1266848489092764     
   2.2722475095965553     
 -0.31758824826907106     
  0.59714786916000340     
   1.9097498194442550     
  -2.3637987943694796     
 -0.21369861515042293     
  -1.7714120816394070     
  -1.8830762333663600     
 -0.45146283082712202     
  -1.1988227865383729     
  0.92586343381742831     
   1.2589619094964046     
   2.1629758550306066     
   1.5371568961646536     
  0.86593740987396639     
  0.18013133003537979     
 -0.31292187442297792     
  0.40324260063346717     
  0.75862358024588361     
 -0.40585473137281580     
   1.4417831684046689     
  0.75207500763067925     
  0.46391664944205502     
  0.57511286947101625     
  -2.7030002115479991E-002
   1.9357833113676828     
  0.69619371903053084     
  -1.1860298498297146     
  0.76192148821081473     
  0.71840470018132252     
   1.1060662455730759     
  0.46706664889561855     
  0.29835559804134915     
 -0.32046343975620578     
  -1.0892241625913992     
  0.55104031587041069     
 -0.76457654286204879     
   1.5162289575127044     
   1.5090090106708252     
 -0.57431424546531007     
  -1.0973607111978316     
  0.92728259151427572     
  -1.1480134014272261     
  -1.3660593782572072     
  0.13956988228518558     
 -0.49904669316172545     
 -0.83488827671184052     
   3.4356019625658124E-002
   3.5296117898196207E-002
  0.49549164546882374     
  -1.1704515446632804     
 -0.14028631591017696     
  0.20003049442610535     
 -0.41907182295017242     
  0.92999610180683134     
