  0.45757849236086923     
   1.5005190931245940     
   4.9618145353204787E-002
  -1.6454618198109108     
  -1.2283021208622806     
   2.0034952708582483     
   1.1750239146857917     
  0.80296491832718309     
   1.7662429960993877     
   1.1651610818141471     
 -0.39095208310451313     
  0.14305422437793408     
   1.3385699559981934     
  0.22390922900950855     
   1.8938402326001458     
 -0.35309849556642192     
  0.42381874124689622     
  0.88600731417840473     
 -0.72691013020905115     
  -7.8075323880589728E-002
  0.66209725936706221     
  -1.3092338611768286     
   3.7102107219641724E-002
  0.88087672748164392     
  0.72191801087873275     
  0.16373719319170077     
 -0.37244919461194576     
   1.8321985266503142     
  -2.9489724521402881E-002
  0.82721093745987939     
  -5.7162788264655942E-002
  0.71343975641141055     
  -1.0631294932548312     
  -1.1033554690454805     
  0.75515969416187567     
  -1.1119260649589506     
  0.44098667006012116     
   1.0725931869674825     
 -0.89611592517706662     
  -1.1949983184990447     
 -0.36153532496855151     
  -1.3683516896644838     
 -0.60117364020480579     
  0.87213768944155157     
  0.63764633862310915     
 -0.46795758224513606     
   6.7669041967499732E-002
 -0.36565422065537306     
 -0.33666217779151308     
 -0.58168962172195959     
 -0.58351996750364277     
 -0.15700216085730043     
  0.58607818317995053     
  0.11328927091670273     
  0.39523543363125324     
   2.9614714981853051E-002
  0.21488640210284685     
   7.1127780918626302E-002
  -1.9468258139288241     
 -0.62093901652263017     
   1.3134028982992365     
   1.1097652242189722     
  -1.0241656479892054     
   1.0161871197523473     
  0.75447186821585699     
 -0.83091159534994119     
   2.4474047019925074     
  -1.4624350206497214     
  0.53126386713908191     
 -0.78654239155771100     
  0.72829201492094353     
  -2.4821500641369596     
 -0.20659410855070304     
  -1.3016913065241187     
  0.75756280714377977     
  -1.0558440866785712     
  0.75126010961560485     
 -0.90519932956411708     
  -1.1191958253962146     
 -0.18324221875259197     
  -1.5178406269615317     
 -0.69738735650234118     
 -0.61435418872456449     
 -0.55727208013405449     
   1.6151370353006949     
 -0.29654398426207779     
  -2.2955612274298796     
   1.6895543596502419E-002
  0.35348199434883654     
  0.58382920319017528     
 -0.49583821904921399     
 -0.17396631030066542     
 -0.61989219128562667     
  0.11535438161609590     
 -0.14489663846664039     
 -0.22156298421466020     
  0.39172621776495636     
 -0.10261805326694384     
 -0.85943119126337175     
  0.55804907348588939     
  -1.2904846462179711     
 -0.92912649036905748     
  -1.6102792502523871     
  -1.3390461861337122     
  -1.7014052429851927     
 -0.78448453962132514     
   1.1964531758268064     
  -2.0142527597837679E-002
  0.18244483514711679     
 -0.56473590033783827     
  -1.8280859258600672     
   1.3114354972315940     
 -0.20060712701351607     
  0.11488985497620309     
  0.45995563569811992     
  0.18570564864474379     
  0.22833755853903365     
   1.0676921234025418     
  0.71904564729294718     
  0.20165372636062762     
  -1.5384188662699956     
 -0.23821630064263818     
 -0.87878210006771729     
  0.98858917617765363     
 -0.50394770356663043     
  -1.6241176956280921     
   1.7211696463379305     
 -0.62704427160613607     
  0.23556220874823022     
 -0.55127334962446373     
  0.99690409143605185     
  0.39308733785752137     
   1.3385698595251019     
 -0.64262070432376017     
   1.1681994987833904     
   3.4251862008657326E-002
  0.54448740702053811     
  0.72731516983040156     
 -0.15730441801569925     
  0.75450679779219954     
   1.1952636006194961     
  -1.2576024275186890     
   1.4354397682493134     
  0.63399470827562754     
  -1.0169365264318770     
   1.6239564064698155     
 -0.94333316660717259     
 -0.39640635461776719     
  0.18877650043731542     
  0.62054923563105580     
   1.5538913059475659     
  -1.0936937342609125     
 -0.57812157794621732     
 -0.72624762401442267     
  0.93264642668533637     
  0.99066195853856576     
  0.55307574023889305     
 -0.55088875496286727     
  -1.1056156432987927     
  -2.2262696328984082     
 -0.13971350656523013     
   1.0713727244239326     
 -0.39688939574183757     
   1.6430976479098830E-002
  0.16706246624613527     
 -0.12737966842444859     
 -0.69369854403730902     
  0.50245184906817930     
 -0.86126986920016357     
 -0.49575043783888401     
  0.66540978066560541     
  0.79570585725430520     
 -0.71478032474683761     
   1.4645463757664836     
  -7.5983302702986727E-002
   1.7744872842938004     
 -0.29487180211515934     
   1.1511747088229565     
 -0.20873433317487985     
   1.7162881433318431     
  0.93772596585800205     
  0.25808798279519685     
  0.88508348448804885     
  -2.4206090789498824     
   6.7303573022538338E-002
  -1.7051764144729240     
 -0.93881767240980885     
  -1.7887145333454708     
   1.7652418562184538     
   1.0299792798294813     
 -0.92466356749021061     
   1.8544545057303146     
  -2.5178567945945649     
 -0.94295823138207535     
   2.2624019973476326     
   1.4391940561972068     
   7.9505773665394713E-002
  0.29182419095849066     
  -1.1130572528629188     
  0.86857694123802232     
   2.3630428223564639     
  0.10124803832594803     
   9.4666288233553761E-002
  0.22732234633404397     
 -0.15220351765314835     
   1.0160906542247183     
   1.4442853062329535     
  -1.0674565998329122     
   1.5049411224333633     
  0.71259104397383310     
 -0.25938036273651272     
  0.16057624406383569     
  -3.6554626554422237E-002
  0.76952301385067090     
   1.2692696707366424     
  0.41189093285453771     
  -1.2382422513785152     
  -9.8188993475959552E-002
   1.6884676338933724     
 -0.86900925737241885     
  0.41543115823440313     
 -0.64702471180395749     
 -0.26528315209588493     
  0.51547365057392847     
   1.6921993608836308     
 -0.97631748269787511     
  -2.1676997535662537     
  0.99599072832681534     
  0.59715958096350663     
  -4.7192692247349420E-002
   1.1609947928040307     
   1.3543904190628697     
   1.1650629667617185     
  -1.2149417111234950     
 -0.51372600354609654     
 -0.93790757838704975     
 -0.18556338370528896     
  -4.0733482584578554E-002
 -0.37281348080332161     
 -0.13250142116981917     
 -0.22635156084001354     
   2.2063192719668896     
 -0.37728733419238042     
  -1.7207933549753904     
 -0.60686228533758535     
   2.0204620015472723     
 -0.95700549643604949     
   1.2869464893164586     
  0.57499541850440739     
  -8.9183998185561969E-002
   1.4267469395589010     
  0.67741765720501701     
  0.90251715313740744     
  -2.1583480516692455     
   1.4631473020723260     
   2.3341187156630309E-002
   1.3232008524422467     
  -1.6543319396741538     
  -7.7432922458069889E-002
  0.87305241961253455     
 -0.20664494577928375     
 -0.98783819470585588     
  -1.3218484540838977     
  -1.0085066932296516     
  -1.2714369947089259     
 -0.69037633180530911     
  -1.0088940925641630     
  0.17567674557844282     
  -2.4039878935582712     
 -0.45494777803032960     
   1.0495284255954354     
 -0.58937685188641420     
 -0.19831986907890753     
  0.36593390283363447     
   1.4685819632152419     
  -3.2201878536868352E-002
 -0.90604543079329469     
  0.87985082540205484     
  0.99800249413571951     
   1.1262319191324726     
  -8.7039869298043571E-003
   1.0804648377582264     
 -0.53648506523141204     
   7.2179063618691128E-002
  0.10499417323337118     
   1.4202502627083551     
  -1.0396647567642594     
  -1.3668698563779429     
  0.33917149332533553     
  0.29024927489956015     
 -0.24704541757390122     
  -3.6142848400851947E-002
 -0.74825520624117847     
  -1.1151966373367770     
  0.52552011759078876     
 -0.81632513878318769     
 -0.67496878819118800     
 -0.95246449775461317     
 -0.91802786027299710     
   1.3205605891986587     
 -0.48436694805771013     
 -0.33610696591207484     
 -0.65527126939028724     
 -0.76035027175713799     
  0.85073954163478016     
  -1.6676784831052429     
  0.62513579900342520     
   1.2940292583312705     
  0.10607466028738234     
  0.15945459021831249     
 -0.81469742853489946     
  -5.9917702112406650E-002
  -1.4049857360087550     
 -0.76405035620462136     
  -6.3159902149951902E-002
   2.3937859628956213     
 -0.24021267542612479     
 -0.84151705381185582     
 -0.79066949536760500     
  -1.2679239031684075     
  -3.5255882094155672E-002
 -0.31307052989796158     
  0.66567274541904620     
  0.63084127130873024     
  -2.1635577953630531     
  0.82679545390092135     
  -1.5593683937395235     
   2.4872949107265963     
   3.0203379024485595     
 -0.29733927150236367     
   1.4951246649851080     
  0.46174689619768455     
 -0.59038512068109295     
  0.72732416994352067     
  0.26060749748989398     
  0.54028092447073106     
  0.63054752196373220     
  -1.7078811228590254     
  -8.3672158514158351E-002
  0.26876319005363375     
 -0.44097169342891629     
   1.2896447944189016     
  -1.6208187900937270     
  -7.5910317447173054E-002
 -0.53051016172047427     
  -1.0476915728398764     
  0.74489056480189630     
 -0.50527574542163056     
 -0.15385939886988681     
  -4.1264931439001479E-002
  0.52702887928256492     
  0.70313867568040256     
   5.7731069185057750E-002
  0.38721539194530674     
  -1.2912866347326337     
   1.0913645659096267     
  0.62940299347568274     
  -1.0448289634583166     
  0.13042711438421103     
  -8.8664500390832554E-002
  0.24783114850365248     
  0.47725825041819125     
  0.73514128727731343     
  0.64230946920299081     
  0.94529743065515870     
 -0.44755104558003506     
  0.78264649412758835     
   8.3165422218859725E-002
  0.76592162094999727     
  -1.6519044598895030     
   1.7326994518680534     
  0.43085094550263131     
 -0.71043673694311094     
   1.0423920035555794     
 -0.15576275608899848     
  0.68527878439376533     
 -0.63282202265250487     
 -0.44667138876662837     
  0.56570675093760348     
 -0.23241165008747916     
  -2.0201776328266106     
  0.62913447974577608     
  0.28220367118234396     
 -0.65547133219912357     
   2.6600012315824944     
  0.69819163861551581     
 -0.23882910976497479     
  -1.2588971730325955     
  0.17889211668599719     
  0.71423951481605730     
 -0.33141688446752871     
   1.6467877392980227E-002
  0.99826677790387641     
   1.2772860323655904     
  0.47622514904918317     
  0.73574082132187835     
 -0.82311023073812806     
   1.5216263415646665     
 -0.49093923655016075     
  0.29020293785599172     
