  0.49448375988912946     
   1.0811267237299098     
   1.6734130633746735E-002
 -0.66761854483908201     
 -0.10118028493299039     
   1.5317211419435530     
  -1.1920773552761812     
  -1.1416628086460097     
  -1.0562342840398955     
  -1.1683282926114826     
  0.87038788095038111     
 -0.87745180682971136     
 -0.50309737924346054     
  -1.8500618364253218     
 -0.85289744538576606     
   1.0536091543437593     
  0.17670923391990800     
 -0.74703842917463592     
 -0.59259446635278545     
   1.4341274138878337     
  0.90081899913374341     
   2.1149403371443574E-002
   5.9130479366601832E-002
 -0.75431187427335211     
 -0.87252840531933884     
  -1.6250708537875462     
  0.46484150471754937     
   1.2608951430426789     
  0.46010054249681615     
 -0.30282941079840525     
   3.6307135596885996E-002
  0.27695128107405764     
  -1.2838885433264278     
   1.2261499021407101     
 -0.50253740935474267     
  0.75598252494894691     
 -0.81144509509780516     
  0.65595368595905790     
  0.10391915228432567     
 -0.16901509713120699     
  0.59968691633680205     
  0.56170313519262116     
 -0.77060364767933520     
  -2.5208309036212189     
   1.9333553689997538E-002
  0.41337801317198486     
   1.4316749189361706     
 -0.75461079408047405     
  -1.5315388077583176     
  0.47576393841372422     
 -0.60876211013443338     
  0.48438781873735265     
 -0.88256378718386896     
  -1.5209063601407113     
 -0.27492849709671741     
   5.8053586879951834E-003
 -0.29615257797276867     
  -1.0936270988587533     
 -0.83632055851580622     
  -5.8226249212002028E-002
 -0.18857289123781149     
  0.97861429023218471     
   1.0124139453087007     
   1.4402033854487291     
 -0.43157165491733263     
  0.57410622797392763     
  -9.0123539886650519E-002
  0.52072361136873202     
  0.54273334167828435     
 -0.18361462278928284     
  0.44575488107349887     
  0.87345089577259938     
 -0.14874567645745421     
  0.79188175222941704     
  0.61439659725516660     
   3.6716092639181026E-002
  0.34537242749962066     
   1.9872665315558324     
  0.46887526417432801     
  0.37240982248396926     
  0.14868297889212018     
  -1.3150338538504358     
 -0.85041540060854592     
   8.4150237264822795E-003
  0.80366308750285620     
   2.3329487140426259     
 -0.28242394094254486     
 -0.56082948777842612     
  0.94640905879499737     
  0.56915970513096115     
 -0.25293280643521698     
 -0.19210383597395816     
 -0.28506285665155923     
  -4.1804861670600067E-002
  0.49249445569302941     
  -7.9456283533801634E-003
  -1.6958448104488697     
  0.20154116505965447     
  -1.9558507763259092     
  -1.2741764992669333     
 -0.54798768209976723     
  0.53289660796674310     
  -1.1038752448674605     
  -2.0020445474001769     
 -0.81927868962589523     
  -5.7933421876483177E-002
  0.27712868051062384     
 -0.31750795245646646     
  0.66383245199354790     
 -0.73571078584881588     
   1.7301754754865402     
  0.19025498780640757     
  0.17193941836848575     
  -2.6685886570980411     
 -0.94773362376105974     
  0.11819658754672857     
  0.22927418028848559     
 -0.23048465868149584     
 -0.72235152853481766     
  0.32555162472858928     
  -2.0438590165401784     
  0.47582564951433337     
   1.1479798252373512     
  0.73359904556643563     
  0.74459113438320623     
 -0.78911950364922512     
  0.57191995646007521     
  0.40258007122213235     
 -0.36652321513044978     
 -0.15532226862822832     
 -0.40692899818112244     
  0.94981196055623540     
  -1.1370257921710969     
  0.60554505977868789     
 -0.90813321075208064     
 -0.83428461507061724     
  0.22035239894531966     
 -0.52360164048754188     
  0.94625734718377497     
  0.67105449702827613     
  0.21145271970224191     
 -0.55337067591103617     
 -0.84855373217271723     
  -8.9462602732418142E-002
  0.68602187913369517     
  0.69117338266951633     
   1.0644614863985216     
  -1.4647977935364462     
 -0.78155367697647393     
 -0.86390804105431673     
   1.2531670347931503     
  -1.7868945488985442     
   7.2559141476005298E-002
   1.7157904745237615     
   2.1050488408831955     
 -0.13983762871434810     
   1.6297212841659221     
  -8.8986197987592511E-002
   2.1316374261125075     
  0.32221195613719122     
  0.28881638141288285     
 -0.64644469303343233     
  -1.3659311259418745     
  -5.5623346363399107E-002
   4.8961311191210902E-002
 -0.20468394809903326     
  0.35884056756861721     
 -0.98431846878209062     
  0.61062346464902917     
  0.65383379787722573     
  0.80121194051785571     
 -0.22396603377856814     
  -1.3545432403386477     
 -0.41840686145783379     
  0.55854994736232433     
  -3.8612628077374943E-002
  0.35044715957019773     
  0.42918293685617437     
  0.63116977960448717     
  0.78975052954844494     
  0.29780156522076556     
  0.84303515372169935     
  -1.3234764835992829     
 -0.83169308204362791     
 -0.33560824558021091     
  0.33446117451842622     
  0.83557489474787117     
  0.21784145649902384     
   1.2902475804597935     
 -0.80913916317367018     
 -0.15836349308049980     
  -1.8593532760298717     
   1.9172817607624382     
 -0.57941184403287094     
  -1.1127534903970073     
  -8.5213109678101917E-002
   1.4564282887130071     
 -0.40406422851781226     
   1.0679172405784985     
   1.6133908774842363     
 -0.13500948599738311     
 -0.51598444017207545     
 -0.83986875995723065     
 -0.59919181242764896     
 -0.71993394294844271     
  0.51686550600238335     
  0.91170764172541985     
   1.2544588758979942     
  0.15515452957775860     
   1.5911437734819589     
 -0.65239626316007326     
  0.22447385740374148     
 -0.37837224044260864     
   3.2099994269242246E-002
  -1.3916191088949108     
  0.39719533633371523     
   1.1559641217985055     
   7.4837407222979394E-002
   1.1063378568506845     
 -0.74755860769352478     
  -1.5963478664527673     
 -0.42911645488033018     
  0.37839042418756857     
  -3.4121168574235937E-002
 -0.41411720367604110     
 -0.18984350618634713     
  -1.5570426952536716     
   1.0160763553995524     
  -1.4319786488395765     
 -0.71183616194514721     
   7.4079354627023336E-002
  0.20852900256473689     
 -0.78845296333609527     
 -0.16651089568399069     
  0.70379354427626417     
  0.69078795933351400     
  0.89743033468740063     
   1.4634395459796128     
   1.5746004970829472     
 -0.13310648789125321     
  -1.6806608262736114     
 -0.70263361547576231     
 -0.81419662985329611     
 -0.65552871655778222     
  0.73986059250942682     
 -0.37742208080665823     
  -1.6366487452919862     
  -1.1511204049834554     
 -0.70813805782601980     
  0.59814707887386132     
   1.3588418891245702     
  -1.3031312171328510E-002
  0.87978397867410940     
 -0.75229532729770143     
  0.81373113030278654     
  -1.1297360245150092     
 -0.29781346144980858     
  0.27878210755854749     
 -0.93202220856088358     
   1.6448818992350531     
   1.1072764952252514E-002
 -0.52848116226851738     
  -1.3621226710155294     
  0.72786292770215777     
   1.3175168239981991     
  -1.0887579184492271     
  0.21139143940283603     
  0.56653349760223992     
  -1.3643256049473060     
 -0.19180727605659392     
  -1.0951387606862431     
 -0.58549364282375782     
   1.1681083758950155     
  0.29408222971107073     
  -7.6496415561001146E-002
 -0.58618911465506618     
  0.40769614280877248     
   9.6480329354656336E-002
  -1.4387450398902981     
  -1.3824958245912451     
  -1.9897245974851407     
  0.41258545482746195     
  -9.9422400888215575E-003
 -0.64358636270406788     
   1.4419299974656412     
 -0.57974874070267790     
  0.19338868231196477     
  0.37363461537339659     
  -3.5239190298184966E-002
   7.5011454470603839E-002
  -1.7112437139832128     
  0.18909025240067984     
  0.50345056117404874     
  0.58634029846295332     
   2.0836612987043814     
  -1.7140905835254778     
 -0.85652631696873005     
  0.55687560930727564     
  0.90829136928795551     
 -0.77256287551554526     
  0.17570913464619492     
  0.18473458360923434     
  0.11135292704059972     
  0.12087026187024522     
  0.75451492427275280     
  0.15237063270868015     
 -0.31539113313671585     
  0.22655797032828276     
   1.6951982535604072E-002
  -1.7215499446237590     
 -0.65548315055855155     
   1.5033762998486504     
  0.16319501283677595     
 -0.44791283069077276     
  -1.0986799334907305     
  -8.0895259632682483E-003
 -0.68201979829404180     
  -1.2148228457526045E-002
   1.2344024372089488     
   4.0390136419054118E-002
 -0.38844924241170309     
 -0.41791070079442383     
  0.48232836680301650     
  0.18075575719202519     
 -0.38938847170033031     
  -1.5632862849518949     
   1.0019735381228285     
   1.9032726429324365     
  -1.0875517917693809     
  -1.0315964279029115     
  0.62039834002264604     
  0.52983007026916085     
   1.1629193368738797     
  -2.3570750914218310     
  -1.2199431454399090     
   1.0447821059849438     
 -0.42101002039178526     
  0.60914079583375014     
 -0.65324994575401629     
  0.23458449807484488     
 -0.41126615172076791     
  -1.3555805238731571     
   1.6709543347312217     
  0.24020825973679374     
  -1.3629456245477374     
  0.80918885467530854     
  0.84333674437475215     
   1.6631385474491822     
  -1.8915419679776670     
 -0.87837686401697679     
 -0.41290987825276504     
 -0.53127542222742219     
  -1.2155111053956686     
  -1.6835682238582991E-002
 -0.89294419072935416     
 -0.70289796158960138     
   1.0857741278196542     
 -0.98793127707181483     
 -0.18190383052853715     
  -1.1483281090780413     
  0.33350352478369322     
   7.3973330240133459E-002
  -1.5375822378472757     
  -1.0611442138757810     
  -1.2473483105212264     
   1.1305176083754760     
  0.80563543458016185     
   1.1428580776345751     
  0.41653524370837780     
  0.68583111885909243     
   1.3152143331596149     
  -2.2486266258452057     
  0.30571186737880918     
  0.11305996270903276     
   1.0082053264090824     
  -1.2676635336114623     
  0.81929565050688691     
 -0.48723176317519140     
  0.90080487715318480     
 -0.18272357160432134     
  -1.1820409881529577     
  -1.6518912907957957     
  -1.5124798531525938     
   1.9462853009506977E-002
  -1.1581537007877007     
 -0.84270221698059511     
 -0.57488153936983666     
  0.34639096214871695     
   1.1460836884675059     
  0.16159066920899789     
   2.4351909199251489     
 -0.31434407073474208     
  0.93439136462824213     
  -4.0399874889433217E-003
  -1.1438463451330600     
 -0.69985314800925891     
  -1.1273278154386532     
  0.27683910609640938     
  0.73252990670744678     
  -1.5797659281487670     
