 -0.99230293888630339     
 -0.83474049963556862     
  0.80451400561625919     
 -0.47763125319973238     
  -1.3395889705132045     
  0.52521555436236378     
 -0.92891819645691664     
  0.67269995019721662     
  -3.2775245035029319     
  0.88176663937832878     
  -1.0197634784599761     
 -0.19435516867071195     
   4.8417441356874305     
  -1.6859084895082510     
  -2.6716669585458477     
   1.2151678910534403     
   1.2093844245603824     
  -3.0778382443675527     
  -2.0318062161867925     
   1.8574337536302281     
  -1.0297852579233475     
  -1.8640226919047613     
   2.1265989002321311     
  -3.0455399654944926     
  0.25963503235167168     
  -2.6144607059156235     
  -1.1040885857234677     
  0.51741553457645117     
  0.44254367749535128     
  -2.1316719130347290     
 -0.20734858389368829     
  -4.9746300350716801     
   1.6024194535413214     
  -8.9183504777377358     
   1.9315434811475416     
  -2.2262265028111057     
   2.8585116399640955     
  -1.0068561897947481     
  -1.0647400242360479     
  -5.4534070151497831     
   3.0848674348871516     
   1.0137738352864090     
  -2.8286608825093671     
   3.2856230441986560     
   1.2827315996510440     
   1.0697477885099151     
  -1.8219913738205433     
  0.44996837374960158     
   4.2410011264532272     
 -0.22046935383376454     
  -2.3987711424488101     
   1.6968325011042507     
  0.25388219157460584     
  0.20620917477581491     
  -6.2046288653624710     
   4.7269663684528211     
   1.7420068206748813     
  -2.8122515716612324     
  0.56506147396383755     
   2.8058332122370016     
   1.1138158983717248     
  -3.5874136229266775     
   3.5604782709153548     
  -1.7219715390845856     
  -1.0349267287000969     
  -2.5232211137888920     
  0.31113019810773235     
 -0.55136411079625813     
  -2.4485425310244708     
   9.4806324287448049E-002
   1.3492575107133733     
   3.5222644706981638     
  0.75341540493891668     
   2.9314557533137471     
 -0.50912540906636761     
   1.8498026276501982     
  0.49979567476679232     
 -0.15227550878151855     
   3.3352465557983257     
   1.6659441189285626     
  -2.3419161938029167     
  -2.0611496586591733     
   1.3986938040416890     
  0.21212475981590576     
   1.6486288970777254     
   1.1858195658631265     
 -0.60213540113092323     
  -1.1741529995133355     
  -5.6426640288665473     
  -1.6926739598905438     
   2.3536118051268895     
   1.9512732592139697     
  -3.1113526062166317     
   1.3325978460105152     
 -0.37724196999809390     
 -0.44407354786258141     
 -0.57276003172617107     
  0.23391627885786886     
   6.1309358756872765     
 -0.59413148608552113     
